time,x,vx,y,vy,z,vz,phi,p,theta,q,psi,r,U1,U2,U3,U4,x_d,vx_d,y_d,vy_d,z_d,vz_d,psi_d,psi_dot_d,Ux,Uy,phi_d,theta_d
0.0000,5.0000,0.0000,0.0000,0.0000,35.0000,0.0028,0.0000,0.0000,-0.0070,-0.7000,0.0016,0.1566,4.7628,0.0000,-0.7000,0.3132,5.0000,-0.0000,0.0000,2.5000,35.0000,-0.2500,1.5708,0.5000,0.0000,0.2516,-0.0000,0.2544
0.0100,5.0000,0.0007,0.0000,0.0000,35.0001,0.0056,0.0000,0.0019,-0.0140,-0.7029,0.0046,0.3000,4.7655,0.0008,-0.0029,0.2868,4.9999,-0.0125,0.0250,2.5000,34.9975,-0.2500,1.5758,0.5000,-0.0033,0.2553,-0.0020,0.2581
0.0200,5.0000,0.0020,0.0000,0.0000,35.0002,0.0084,0.0000,0.0015,-0.0211,-0.7050,0.0089,0.4313,4.7683,-0.0025,-0.0021,0.2625,4.9998,-0.0250,0.0500,2.4999,34.9950,-0.2500,1.5808,0.5000,-0.0068,0.2589,-0.0042,0.2619
0.0300,5.0001,0.0040,0.0000,0.0000,35.0003,0.0111,0.0000,-0.0008,-0.0281,-0.7063,0.0144,0.5513,4.7714,-0.0053,-0.0013,0.2401,4.9994,-0.0375,0.0750,2.4997,34.9925,-0.2500,1.5858,0.5000,-0.0105,0.2625,-0.0066,0.2657
0.0400,5.0001,0.0067,0.0000,0.0001,35.0004,0.0137,-0.0000,-0.0045,-0.0352,-0.7069,0.0210,0.6609,4.7748,-0.0076,-0.0006,0.2193,4.9990,-0.0500,0.1000,2.4995,34.9900,-0.2500,1.5908,0.5000,-0.0143,0.2660,-0.0090,0.2695
0.0500,5.0002,0.0101,0.0000,0.0001,35.0006,0.0163,-0.0001,-0.0092,-0.0423,-0.7068,0.0286,0.7610,4.7784,-0.0094,0.0001,0.2002,4.9984,-0.0625,0.1250,2.4992,34.9875,-0.2500,1.5958,0.5000,-0.0184,0.2695,-0.0116,0.2733
0.0600,5.0004,0.0141,0.0000,0.0002,35.0008,0.0188,-0.0003,-0.0145,-0.0493,-0.7060,0.0371,0.8523,4.7822,-0.0107,0.0008,0.1825,4.9978,-0.0750,0.1500,2.4989,34.9850,-0.2500,1.6008,0.5000,-0.0226,0.2730,-0.0144,0.2771
0.0700,5.0006,0.0188,0.0000,0.0004,35.0010,0.0213,-0.0005,-0.0202,-0.0564,-0.7046,0.0465,0.9354,4.7863,-0.0117,0.0015,0.1662,4.9969,-0.0875,0.1750,2.4985,34.9825,-0.2500,1.6058,0.5000,-0.0270,0.2765,-0.0173,0.2810
0.0800,5.0008,0.0242,0.0000,0.0006,35.0012,0.0238,-0.0007,-0.0260,-0.0634,-0.7026,0.0566,1.0110,4.7907,-0.0124,0.0022,0.1512,4.9960,-0.1000,0.1999,2.4980,34.9800,-0.2500,1.6108,0.5000,-0.0316,0.2799,-0.0203,0.2849
0.0900,5.0011,0.0303,0.0000,0.0009,35.0015,0.0262,-0.0010,-0.0316,-0.0704,-0.7001,0.0674,1.0796,4.7952,-0.0127,0.0028,0.1373,4.9949,-0.1125,0.2249,2.4975,34.9775,-0.2500,1.6158,0.5000,-0.0363,0.2833,-0.0235,0.2887
0.1000,5.0015,0.0370,0.0000,0.0012,35.0018,0.0285,-0.0014,-0.0369,-0.0774,-0.6970,0.0788,1.1419,4.8000,-0.0128,0.0034,0.1245,4.9938,-0.1249,0.2499,2.4969,34.9750,-0.2500,1.6208,0.5000,-0.0412,0.2867,-0.0268,0.2926
0.1100,5.0019,0.0445,0.0001,0.0017,35.0021,0.0308,-0.0018,-0.0417,-0.0843,-0.6935,0.0908,1.1982,4.8051,-0.0127,0.0039,0.1127,4.9924,-0.1374,0.2749,2.4962,34.9725,-0.2500,1.6258,0.5000,-0.0463,0.2900,-0.0303,0.2966
0.1200,5.0024,0.0525,0.0001,0.0022,35.0024,0.0330,-0.0023,-0.0458,-0.0912,-0.6895,0.1033,1.2491,4.8104,-0.0124,0.0044,0.1018,4.9910,-0.1499,0.2998,2.4955,34.9700,-0.2500,1.6308,0.5000,-0.0516,0.2933,-0.0339,0.3005
0.1300,5.0031,0.0613,0.0001,0.0029,35.0028,0.0352,-0.0028,-0.0491,-0.0981,-0.6853,0.1162,1.2950,4.8159,-0.0119,0.0048,0.0917,4.9894,-0.1624,0.3248,2.4947,34.9675,-0.2500,1.6358,0.5000,-0.0570,0.2965,-0.0376,0.3045
0.1400,5.0038,0.0707,0.0001,0.0038,35.0031,0.0373,-0.0033,-0.0515,-0.1049,-0.6808,0.1296,1.3362,4.8216,-0.0113,0.0051,0.0825,4.9878,-0.1749,0.3497,2.4939,34.9650,-0.2500,1.6408,0.5000,-0.0626,0.2997,-0.0415,0.3085
0.1500,5.0046,0.0808,0.0002,0.0048,35.0035,0.0394,-0.0038,-0.0530,-0.1116,-0.6762,0.1433,1.3732,4.8276,-0.0106,0.0053,0.0740,4.9859,-0.1873,0.3746,2.4930,34.9625,-0.2500,1.6458,0.5000,-0.0684,0.3029,-0.0455,0.3125
0.1600,5.0055,0.0915,0.0002,0.0059,35.0039,0.0414,-0.0043,-0.0535,-0.1183,-0.6715,0.1574,1.4063,4.8337,-0.0098,0.0055,0.0661,4.9840,-0.1998,0.3996,2.4920,34.9600,-0.2500,1.6508,0.5000,-0.0743,0.3060,-0.0497,0.3166
0.1700,5.0065,0.1028,0.0003,0.0073,35.0044,0.0434,-0.0049,-0.0530,-0.1250,-0.6667,0.1718,1.4357,4.8401,-0.0089,0.0055,0.0589,4.9819,-0.2122,0.4245,2.4910,34.9575,-0.2500,1.6558,0.5000,-0.0805,0.3090,-0.0540,0.3207
0.1800,5.0077,0.1148,0.0004,0.0089,35.0048,0.0453,-0.0054,-0.0515,-0.1316,-0.6620,0.1864,1.4618,4.8466,-0.0080,0.0055,0.0522,4.9798,-0.2247,0.4494,2.4899,34.9550,-0.2500,1.6608,0.5000,-0.0867,0.3120,-0.0584,0.3248
0.1900,5.0089,0.1274,0.0005,0.0107,35.0053,0.0472,-0.0059,-0.0489,-0.1382,-0.6574,0.2012,1.4848,4.8534,-0.0071,0.0054,0.0460,4.9775,-0.2371,0.4743,2.4887,34.9525,-0.2500,1.6658,0.5000,-0.0931,0.3150,-0.0629,0.3289
0.2000,5.0103,0.1407,0.0006,0.0129,35.0058,0.0490,-0.0063,-0.0453,-0.1447,-0.6529,0.2163,1.5050,4.8604,-0.0062,0.0052,0.0404,4.9750,-0.2496,0.4992,2.4875,34.9500,-0.2500,1.6708,0.5000,-0.0997,0.3178,-0.0675,0.3331
0.2100,5.0119,0.1545,0.0008,0.0153,35.0063,0.0508,-0.0067,-0.0407,-0.1512,-0.6487,0.2315,1.5226,4.8675,-0.0052,0.0049,0.0352,4.9725,-0.2620,0.5240,2.4862,34.9475,-0.2500,1.6758,0.5000,-0.1064,0.3207,-0.0723,0.3373
0.2200,5.0136,0.1690,0.0010,0.0180,35.0068,0.0525,-0.0071,-0.0352,-0.1577,-0.6448,0.2469,1.5378,4.8748,-0.0043,0.0045,0.0304,4.9698,-0.2744,0.5489,2.4849,34.9450,-0.2500,1.6808,0.5000,-0.1133,0.3234,-0.0772,0.3415
0.2300,5.0154,0.1840,0.0012,0.0211,35.0074,0.0542,-0.0074,-0.0287,-0.1641,-0.6412,0.2624,1.5508,4.8824,-0.0034,0.0042,0.0260,4.9670,-0.2869,0.5737,2.4835,34.9425,-0.2500,1.6858,0.5000,-0.1203,0.3261,-0.0822,0.3458
0.2400,5.0174,0.1996,0.0014,0.0245,35.0079,0.0558,-0.0076,-0.0214,-0.1705,-0.6379,0.2780,1.5617,4.8901,-0.0026,0.0037,0.0220,4.9640,-0.2993,0.5986,2.4820,34.9400,-0.2500,1.6908,0.5000,-0.1275,0.3287,-0.0873,0.3500
0.2500,5.0196,0.2158,0.0017,0.0284,35.0085,0.0574,-0.0077,-0.0132,-0.1768,-0.6350,0.2937,1.5709,4.8980,-0.0018,0.0032,0.0182,4.9610,-0.3117,0.6234,2.4805,34.9375,-0.2500,1.6958,0.5000,-0.1348,0.3313,-0.0926,0.3544
0.2600,5.0219,0.2325,0.0020,0.0326,35.0091,0.0589,-0.0078,-0.0042,-0.1831,-0.6325,0.3095,1.5783,4.9061,-0.0010,0.0027,0.0148,4.9578,-0.3241,0.6482,2.4789,34.9350,-0.2500,1.7008,0.5000,-0.1422,0.3337,-0.0979,0.3587
0.2700,5.0244,0.2498,0.0024,0.0374,35.0097,0.0603,-0.0077,0.0055,-0.1894,-0.6305,0.3253,1.5841,4.9144,-0.0003,0.0022,0.0117,4.9545,-0.3365,0.6730,2.4773,34.9325,-0.2500,1.7058,0.5000,-0.1498,0.3361,-0.1034,0.3631
0.2800,5.0271,0.2676,0.0028,0.0426,35.0103,0.0618,-0.0076,0.0159,-0.1957,-0.6288,0.3412,1.5885,4.9228,0.0004,0.0016,0.0088,4.9511,-0.3489,0.6977,2.4755,34.9300,-0.2500,1.7108,0.5000,-0.1575,0.3384,-0.1089,0.3674
0.2900,5.0299,0.2860,0.0033,0.0483,35.0109,0.0631,-0.0073,0.0269,-0.2020,-0.6275,0.3571,1.5916,4.9315,0.0010,0.0010,0.0062,4.9475,-0.3612,0.7225,2.4738,34.9275,-0.2500,1.7158,0.5000,-0.1653,0.3406,-0.1146,0.3719
0.3000,5.0330,0.3048,0.0039,0.0545,35.0116,0.0644,-0.0069,0.0385,-0.2083,-0.6267,0.3731,1.5935,4.9404,0.0016,0.0004,0.0038,4.9439,-0.3736,0.7472,2.4719,34.9250,-0.2500,1.7208,0.5000,-0.1732,0.3428,-0.1203,0.3763
0.3100,5.0362,0.3241,0.0045,0.0614,35.0122,0.0657,-0.0064,0.0505,-0.2145,-0.6262,0.3890,1.5943,4.9494,0.0021,-0.0002,0.0016,4.9401,-0.3860,0.7719,2.4700,34.9225,-0.2500,1.7258,0.5000,-0.1813,0.3448,-0.1262,0.3807
0.3200,5.0397,0.3439,0.0052,0.0688,35.0129,0.0669,-0.0058,0.0631,-0.2208,-0.6261,0.4049,1.5941,4.9587,0.0026,-0.0007,-0.0004,4.9361,-0.3983,0.7966,2.4681,34.9200,-0.2500,1.7308,0.5000,-0.1894,0.3467,-0.1321,0.3852
0.3300,5.0433,0.3641,0.0059,0.0768,35.0136,0.0680,-0.0050,0.0760,-0.2271,-0.6264,0.4209,1.5930,4.9682,0.0030,-0.0013,-0.0023,4.9321,-0.4106,0.8213,2.4660,34.9175,-0.2500,1.7358,0.5000,-0.1976,0.3486,-0.1381,0.3897
0.3400,5.0472,0.3848,0.0068,0.0855,35.0143,0.0691,-0.0041,0.0894,-0.2333,-0.6270,0.4368,1.5910,4.9779,0.0033,-0.0018,-0.0040,4.9279,-0.4230,0.8459,2.4640,34.9150,-0.2500,1.7408,0.5000,-0.2060,0.3503,-0.1442,0.3942
0.3500,5.0512,0.4058,0.0077,0.0949,35.0150,0.0702,-0.0031,0.1030,-0.2396,-0.6280,0.4527,1.5882,4.9878,0.0037,-0.0023,-0.0055,4.9236,-0.4353,0.8705,2.4618,34.9125,-0.2500,1.7458,0.5000,-0.2144,0.3519,-0.1504,0.3987
0.3600,5.0555,0.4273,0.0088,0.1050,35.0157,0.0712,-0.0019,0.1169,-0.2459,-0.6292,0.4685,1.5848,4.9980,0.0040,-0.0028,-0.0069,4.9192,-0.4476,0.8951,2.4596,34.9100,-0.2500,1.7508,0.5000,-0.2229,0.3534,-0.1566,0.4032
0.3700,5.0600,0.4491,0.0100,0.1159,35.0164,0.0721,-0.0006,0.1311,-0.2522,-0.6306,0.4843,1.5807,5.0084,0.0042,-0.0033,-0.0082,4.9147,-0.4599,0.9197,2.4573,34.9075,-0.2500,1.7558,0.5000,-0.2314,0.3548,-0.1629,0.4077
0.3800,5.0647,0.4713,0.0112,0.1275,35.0171,0.0730,0.0009,0.1455,-0.2585,-0.6323,0.5001,1.5760,5.0190,0.0044,-0.0037,-0.0093,4.9100,-0.4721,0.9443,2.4550,34.9050,-0.2500,1.7608,0.5000,-0.2401,0.3560,-0.1693,0.4122
0.3900,5.0696,0.4939,0.0126,0.1399,35.0179,0.0738,0.0025,0.1600,-0.2649,-0.6342,0.5158,1.5709,5.0299,0.0046,-0.0041,-0.0104,4.9052,-0.4844,0.9688,2.4526,34.9025,-0.2500,1.7658,0.5000,-0.2488,0.3571,-0.1758,0.4168
0.4000,5.0748,0.5167,0.0142,0.1531,35.0186,0.0746,0.0042,0.1747,-0.2712,-0.6361,0.5314,1.5652,5.0411,0.0047,-0.0045,-0.0113,4.9003,-0.4967,0.9933,2.4502,34.9000,-0.2500,1.7708,0.5000,-0.2575,0.3581,-0.1822,0.4213
0.4100,5.0802,0.5398,0.0158,0.1672,35.0194,0.0754,0.0061,0.1895,-0.2776,-0.6382,0.5470,1.5591,5.0526,0.0048,-0.0048,-0.0122,4.8953,-0.5089,1.0178,2.4477,34.8975,-0.2500,1.7758,0.5000,-0.2663,0.3590,-0.1888,0.4258
0.4200,5.0858,0.5632,0.0177,0.1822,35.0201,0.0761,0.0081,0.2044,-0.2840,-0.6404,0.5626,1.5526,5.0644,0.0049,-0.0051,-0.0130,4.8902,-0.5211,1.0423,2.4451,34.8950,-0.2500,1.7808,0.5000,-0.2751,0.3597,-0.1954,0.4302
0.4300,5.0917,0.5868,0.0196,0.1980,35.0209,0.0767,0.0103,0.2193,-0.2905,-0.6426,0.5780,1.5458,5.0764,0.0050,-0.0054,-0.0137,4.8849,-0.5334,1.0667,2.4424,34.8925,-0.2500,1.7858,0.5000,-0.2840,0.3603,-0.2020,0.4347
0.4400,5.0978,0.6107,0.0218,0.2148,35.0217,0.0773,0.0127,0.2342,-0.2969,-0.6448,0.5934,1.5387,5.0888,0.0050,-0.0056,-0.0143,4.8795,-0.5456,1.0911,2.4397,34.8900,-0.2500,1.7908,0.5000,-0.2929,0.3607,-0.2086,0.4391
0.4500,5.1041,0.6347,0.0241,0.2326,35.0225,0.0779,0.0152,0.2492,-0.3034,-0.6470,0.6087,1.5312,5.1014,0.0051,-0.0058,-0.0148,4.8740,-0.5578,1.1155,2.4370,34.8875,-0.2500,1.7958,0.5000,-0.3018,0.3610,-0.2153,0.4435
0.4600,5.1107,0.6589,0.0266,0.2513,35.0232,0.0783,0.0178,0.2642,-0.3099,-0.6491,0.6240,1.5236,5.1145,0.0051,-0.0059,-0.0153,4.8683,-0.5699,1.1399,2.4342,34.8850,-0.2500,1.8008,0.5000,-0.3107,0.3611,-0.2220,0.4479
0.4700,5.1176,0.6832,0.0293,0.2711,35.0240,0.0788,0.0206,0.2791,-0.3164,-0.6510,0.6391,1.5157,5.1278,0.0051,-0.0060,-0.0158,4.8626,-0.5821,1.1642,2.4313,34.8825,-0.2500,1.8058,0.5000,-0.3196,0.3611,-0.2287,0.4522
0.4800,5.1246,0.7076,0.0323,0.2919,35.0248,0.0792,0.0235,0.2940,-0.3229,-0.6529,0.6542,1.5076,5.1415,0.0050,-0.0060,-0.0162,4.8567,-0.5943,1.1885,2.4283,34.8800,-0.2500,1.8108,0.5000,-0.3284,0.3609,-0.2354,0.4565
0.4900,5.1320,0.7321,0.0354,0.3137,35.0256,0.0795,0.0266,0.3089,-0.3294,-0.6545,0.6692,1.4993,5.1556,0.0050,-0.0061,-0.0165,4.8507,-0.6064,1.2128,2.4253,34.8775,-0.2500,1.8158,0.5000,-0.3373,0.3606,-0.2421,0.4607
0.5000,5.1395,0.7566,0.0388,0.3366,35.0264,0.0798,0.0299,0.3236,-0.3360,-0.6559,0.6841,1.4909,5.1700,0.0050,-0.0060,-0.0168,4.8446,-0.6185,1.2370,2.4223,34.8750,-0.2500,1.8208,0.5000,-0.3461,0.3601,-0.2488,0.4649
0.5100,5.1473,0.7811,0.0424,0.3606,35.0272,0.0801,0.0332,0.3383,-0.3426,-0.6570,0.6989,1.4824,5.1848,0.0049,-0.0060,-0.0171,4.8383,-0.6306,1.2612,2.4192,34.8725,-0.2500,1.8258,0.5000,-0.3549,0.3594,-0.2555,0.4690
0.5200,5.1554,0.8056,0.0462,0.3857,35.0280,0.0803,0.0368,0.3529,-0.3492,-0.6579,0.7137,1.4738,5.1999,0.0049,-0.0059,-0.0173,4.8319,-0.6427,1.2854,2.4160,34.8700,-0.2500,1.8308,0.5000,-0.3636,0.3585,-0.2622,0.4730
0.5300,5.1637,0.8301,0.0503,0.4120,35.0288,0.0804,0.0405,0.3674,-0.3557,-0.6584,0.7283,1.4650,5.2155,0.0048,-0.0057,-0.0175,4.8255,-0.6548,1.3095,2.4127,34.8675,-0.2500,1.8358,0.5000,-0.3723,0.3575,-0.2689,0.4769
0.5400,5.1722,0.8544,0.0547,0.4394,35.0296,0.0805,0.0443,0.3818,-0.3623,-0.6586,0.7429,1.4562,5.2315,0.0047,-0.0055,-0.0176,4.8189,-0.6668,1.3337,2.4094,34.8650,-0.2500,1.8408,0.5000,-0.3809,0.3563,-0.2755,0.4808
0.5500,5.1810,0.8787,0.0594,0.4679,35.0304,0.0806,0.0482,0.3960,-0.3689,-0.6583,0.7573,1.4473,5.2478,0.0046,-0.0053,-0.0178,4.8121,-0.6789,1.3577,2.4061,34.8625,-0.2500,1.8458,0.5000,-0.3894,0.3550,-0.2821,0.4845
0.5600,5.1901,0.9027,0.0644,0.4977,35.0312,0.0806,0.0523,0.4101,-0.3755,-0.6577,0.7717,1.4384,5.2646,0.0046,-0.0051,-0.0179,4.8053,-0.6909,1.3818,2.4026,34.8600,-0.2500,1.8508,0.5000,-0.3978,0.3534,-0.2887,0.4882
0.5700,5.1993,0.9266,0.0697,0.5286,35.0320,0.0805,0.0566,0.4240,-0.3820,-0.6566,0.7860,1.4294,5.2818,0.0045,-0.0048,-0.0179,4.7983,-0.7029,1.4058,2.3992,34.8575,-0.2500,1.8558,0.5000,-0.4061,0.3517,-0.2952,0.4917
0.5800,5.2088,0.9502,0.0753,0.5607,35.0329,0.0805,0.0609,0.4378,-0.3886,-0.6550,0.8002,1.4204,5.2994,0.0044,-0.0045,-0.0180,4.7912,-0.7149,1.4298,2.3956,34.8550,-0.2500,1.8608,0.5000,-0.4144,0.3498,-0.3016,0.4951
0.5900,5.2186,0.9736,0.0812,0.5941,35.0337,0.0803,0.0655,0.4514,-0.3951,-0.6529,0.8143,1.4114,5.3174,0.0043,-0.0041,-0.0180,4.7840,-0.7268,1.4537,2.3920,34.8525,-0.2500,1.8658,0.5000,-0.4224,0.3477,-0.3080,0.4984
0.6000,5.2285,0.9967,0.0875,0.6287,35.0345,0.0801,0.0701,0.4648,-0.4016,-0.6502,0.8284,1.4024,5.3358,0.0042,-0.0037,-0.0180,4.7767,-0.7388,1.4776,2.3883,34.8500,-0.2500,1.8708,0.5000,-0.4304,0.3454,-0.3142,0.5015
0.6100,5.2387,1.0194,0.0942,0.6646,35.0353,0.0799,0.0749,0.4781,-0.4081,-0.6469,0.8423,1.3934,5.3547,0.0041,-0.0033,-0.0180,4.7692,-0.7507,1.5015,2.3846,34.8475,-0.2500,1.8758,0.5000,-0.4382,0.3430,-0.3205,0.5045
0.6200,5.2491,1.0417,0.1012,0.7016,35.0361,0.0796,0.0798,0.4911,-0.4145,-0.6431,0.8561,1.3843,5.3739,0.0040,-0.0028,-0.0180,4.7617,-0.7626,1.5253,2.3808,34.8450,-0.2500,1.8808,0.5000,-0.4459,0.3404,-0.3266,0.5073
0.6300,5.2598,1.0636,0.1086,0.7400,35.0368,0.0793,0.0848,0.5040,-0.4209,-0.6386,0.8699,1.3753,5.3936,0.0039,-0.0023,-0.0180,4.7540,-0.7745,1.5491,2.3770,34.8425,-0.2500,1.8858,0.5000,-0.4534,0.3376,-0.3326,0.5100
0.6400,5.2706,1.0850,0.1164,0.7796,35.0376,0.0789,0.0900,0.5166,-0.4272,-0.6334,0.8836,1.3664,5.4137,0.0038,-0.0018,-0.0180,4.7462,-0.7864,1.5728,2.3731,34.8400,-0.2500,1.8908,0.5000,-0.4607,0.3346,-0.3385,0.5125
0.6500,5.2817,1.1059,0.1246,0.8205,35.0384,0.0785,0.0953,0.5290,-0.4335,-0.6276,0.8971,1.3574,5.4342,0.0038,-0.0012,-0.0179,4.7383,-0.7983,1.5965,2.3691,34.8375,-0.2500,1.8958,0.5000,-0.4679,0.3314,-0.3444,0.5148
0.6600,5.2929,1.1262,0.1332,0.8626,35.0392,0.0781,0.1007,0.5412,-0.4397,-0.6210,0.9106,1.3485,5.4550,0.0037,-0.0006,-0.0178,4.7302,-0.8101,1.6202,2.3651,34.8350,-0.2500,1.9008,0.5000,-0.4749,0.3281,-0.3501,0.5169
0.6700,5.3044,1.1460,0.1423,0.9060,35.0400,0.0776,0.1062,0.5531,-0.4459,-0.6137,0.9240,1.3396,5.4763,0.0036,0.0000,-0.0178,4.7221,-0.8219,1.6438,2.3610,34.8325,-0.2500,1.9058,0.5000,-0.4817,0.3246,-0.3556,0.5189
0.6800,5.3161,1.1651,0.1518,0.9506,35.0407,0.0770,0.1119,0.5648,-0.4519,-0.6057,0.9373,1.3308,5.4979,0.0035,0.0007,-0.0177,4.7138,-0.8337,1.6674,2.3569,34.8300,-0.2500,1.9108,0.5000,-0.4882,0.3209,-0.3611,0.5206
0.6900,5.3279,1.1835,0.1617,0.9966,35.0415,0.0764,0.1177,0.5763,-0.4579,-0.5968,0.9505,1.3220,5.5198,0.0034,0.0013,-0.0176,4.7054,-0.8455,1.6910,2.3527,34.8275,-0.2500,1.9158,0.5000,-0.4946,0.3170,-0.3664,0.5221
0.7000,5.3399,1.2012,0.1722,1.0437,35.0423,0.0758,0.1235,0.5875,-0.4638,-0.5872,0.9637,1.3132,5.5421,0.0033,0.0020,-0.0175,4.6969,-0.8572,1.7145,2.3484,34.8250,-0.2500,1.9208,0.5000,-0.5008,0.3130,-0.3716,0.5234
0.7100,5.3521,1.2182,0.1831,1.0921,35.0430,0.0751,0.1295,0.5984,-0.4695,-0.5767,0.9767,1.3045,5.5647,0.0032,0.0028,-0.0174,4.6882,-0.8690,1.7380,2.3441,34.8225,-0.2500,1.9258,0.5000,-0.5067,0.3088,-0.3766,0.5245
0.7200,5.3644,1.2343,0.1945,1.1417,35.0438,0.0744,0.1356,0.6091,-0.4752,-0.5654,0.9897,1.2959,5.5876,0.0031,0.0035,-0.0173,4.6795,-0.8807,1.7614,2.3397,34.8200,-0.2500,1.9308,0.5000,-0.5124,0.3044,-0.3815,0.5253
0.7300,5.3769,1.2495,0.2064,1.1926,35.0445,0.0736,0.1418,0.6195,-0.4807,-0.5532,1.0025,1.2873,5.6108,0.0031,0.0043,-0.0172,4.6706,-0.8924,1.7847,2.3353,34.8175,-0.2500,1.9358,0.5000,-0.5179,0.2999,-0.3862,0.5259
0.7400,5.3896,1.2638,0.2189,1.2446,35.0452,0.0728,0.1481,0.6296,-0.4861,-0.5402,1.0153,1.2788,5.6342,0.0030,0.0051,-0.0170,4.6616,-0.9040,1.8081,2.3308,34.8150,-0.2500,1.9408,0.5000,-0.5231,0.2953,-0.3908,0.5262
0.7500,5.4023,1.2772,0.2319,1.2979,35.0459,0.0719,0.1545,0.6394,-0.4914,-0.5262,1.0280,1.2703,5.6579,0.0029,0.0059,-0.0169,4.6525,-0.9157,1.8314,2.3263,34.8125,-0.2500,1.9458,0.5000,-0.5281,0.2904,-0.3952,0.5264
0.7600,5.4152,1.2896,0.2454,1.3523,35.0467,0.0711,0.1610,0.6490,-0.4965,-0.5114,1.0407,1.2619,5.6817,0.0029,0.0067,-0.0168,4.6433,-0.9273,1.8546,2.3217,34.8100,-0.2500,1.9508,0.5000,-0.5328,0.2855,-0.3994,0.5262
0.7700,5.4282,1.3010,0.2595,1.4078,35.0474,0.0701,0.1676,0.6582,-0.5015,-0.4957,1.0532,1.2536,5.7056,0.0028,0.0075,-0.0166,4.6340,-0.9389,1.8778,2.3170,34.8075,-0.2500,1.9558,0.5000,-0.5372,0.2804,-0.4035,0.5258
0.7800,5.4414,1.3112,0.2741,1.4645,35.0480,0.0691,0.1742,0.6672,-0.5062,-0.4792,1.0656,1.2454,5.7297,0.0027,0.0083,-0.0165,4.6245,-0.9505,1.9009,2.3123,34.8050,-0.2500,1.9608,0.5000,-0.5414,0.2751,-0.4074,0.5251
0.7900,5.4546,1.3204,0.2893,1.5222,35.0487,0.0681,0.1810,0.6758,-0.5109,-0.4617,1.0780,1.2372,5.7539,0.0027,0.0092,-0.0164,4.6150,-0.9620,1.9240,2.3075,34.8025,-0.2500,1.9658,0.5000,-0.5454,0.2697,-0.4111,0.5242
0.8000,5.4678,1.3283,0.3051,1.5810,35.0494,0.0671,0.1878,0.6841,-0.5153,-0.4433,1.0903,1.2291,5.7781,0.0026,0.0100,-0.0162,4.6053,-0.9735,1.9471,2.3027,34.8000,-0.2500,1.9708,0.5000,-0.5490,0.2642,-0.4146,0.5230
0.8100,5.4812,1.3351,0.3215,1.6408,35.0501,0.0660,0.1948,0.6921,-0.5195,-0.4240,1.1025,1.2210,5.8023,0.0026,0.0109,-0.0161,4.5955,-0.9850,1.9701,2.2978,34.7975,-0.2500,1.9758,0.5000,-0.5524,0.2586,-0.4179,0.5215
0.8200,5.4946,1.3406,0.3386,1.7017,35.0507,0.0648,0.2017,0.6998,-0.5236,-0.4038,1.1146,1.2130,5.8265,0.0025,0.0117,-0.0159,4.5856,-0.9965,1.9930,2.2928,34.7950,-0.2500,1.9808,0.5000,-0.5555,0.2528,-0.4210,0.5198
0.8300,5.5080,1.3448,0.3562,1.7635,35.0513,0.0636,0.2088,0.7072,-0.5274,-0.3828,1.1267,1.2051,5.8506,0.0025,0.0125,-0.0158,4.5756,-1.0080,2.0159,2.2878,34.7925,-0.2500,1.9858,0.5000,-0.5584,0.2470,-0.4240,0.5178
0.8400,5.5215,1.3477,0.3745,1.8262,35.0520,0.0624,0.2160,0.7143,-0.5310,-0.3609,1.1387,1.1973,5.8746,0.0024,0.0134,-0.0157,4.5654,-1.0194,2.0388,2.2827,34.7900,-0.2500,1.9908,0.5000,-0.5609,0.2410,-0.4268,0.5155
0.8500,5.5350,1.3491,0.3934,1.8897,35.0526,0.0612,0.2232,0.7210,-0.5344,-0.3382,1.1506,1.1895,5.8984,0.0024,0.0142,-0.0155,4.5552,-1.0308,2.0616,2.2776,34.7875,-0.2500,1.9958,0.5000,-0.5632,0.2349,-0.4293,0.5130
0.8600,5.5485,1.3492,0.4129,1.9541,35.0532,0.0599,0.2304,0.7273,-0.5375,-0.3146,1.1624,1.1819,5.9220,0.0023,0.0150,-0.0154,4.5448,-1.0422,2.0844,2.2724,34.7850,-0.2500,2.0008,0.5000,-0.5652,0.2287,-0.4317,0.5102
0.8700,5.5620,1.3478,0.4331,2.0193,35.0538,0.0585,0.2378,0.7334,-0.5404,-0.2903,1.1741,1.1743,5.9453,0.0023,0.0158,-0.0152,4.5344,-1.0535,2.1071,2.2672,34.7825,-0.2500,2.0058,0.5000,-0.5669,0.2225,-0.4339,0.5071
0.8800,5.5754,1.3449,0.4539,2.0852,35.0543,0.0571,0.2452,0.7390,-0.5431,-0.2651,1.1858,1.1667,5.9683,0.0023,0.0165,-0.0151,4.5238,-1.0648,2.1297,2.2619,34.7800,-0.2500,2.0108,0.5000,-0.5684,0.2161,-0.4359,0.5038
0.8900,5.5888,1.3405,0.4755,2.1518,35.0549,0.0557,0.2526,0.7444,-0.5455,-0.2392,1.1974,1.1593,5.9910,0.0022,0.0173,-0.0149,4.5131,-1.0761,2.1523,2.2565,34.7775,-0.2500,2.0158,0.5000,-0.5695,0.2096,-0.4377,0.5002
0.9000,5.6022,1.3346,0.4976,2.2191,35.0554,0.0543,0.2601,0.7493,-0.5476,-0.2125,1.2089,1.1519,6.0133,0.0022,0.0180,-0.0148,4.5022,-1.0874,2.1748,2.2511,34.7750,-0.2500,2.0208,0.5000,-0.5704,0.2031,-0.4393,0.4964
0.9100,5.6155,1.3271,0.5205,2.2868,35.0560,0.0528,0.2676,0.7539,-0.5495,-0.1852,1.2204,1.1446,6.0352,0.0021,0.0187,-0.0146,4.4913,-1.0987,2.1973,2.2457,34.7725,-0.2500,2.0258,0.5000,-0.5710,0.1965,-0.4407,0.4923
0.9200,5.6286,1.3179,0.5441,2.3551,35.0565,0.0513,0.2752,0.7581,-0.5510,-0.1571,1.2317,1.1373,6.0565,0.0021,0.0194,-0.0145,4.4803,-1.1099,2.2197,2.2401,34.7700,-0.2500,2.0308,0.5000,-0.5713,0.1899,-0.4419,0.4879
